Time,Amplitude
0.0,0.0
0.002,0.5985332092021768
0.004,1.169502111295135
0.006,1.6870714561879723
0.008,2.1287410372559914
0.01,2.4767146961503705
0.012,2.7189360625371677
0.014,2.8497195107709397
0.016,2.869934850298508
0.018000000000000002,2.786737305780373
0.02,2.612867896706076
0.022,2.365580868654886
0.024,2.0652819884311073
0.026000000000000002,1.733982256825193
0.028,1.3936843681275701
0.03,1.0648231127342416
0.032,0.7648756126883303
0.034,0.5072432302580064
0.036000000000000004,0.30048528980422684
0.038,0.14795707546248593
0.04,0.04787303530163456
0.042,-0.006216849872402841
0.044,-0.024581468503663745
0.046,-0.0201660673522185
0.048,-0.007247848941702717
0.05,0.0
0.052000000000000005,-0.011081209766474642
0.054,-0.05036540161659464
0.056,-0.12391518078045427
0.058,-0.23328326014360856
0.06,-0.3752003430626689
0.062,-0.541677594746225
0.064,-0.7205192494178394
0.066,-0.8962085787313376
0.068,-1.0511008690623935
0.07,-1.1668324953930955
0.07200000000000001,-1.2258375309713492
0.074,-1.2128539631559185
0.076,-1.1163012356403605
0.078,-0.9294195580467856
0.08,-0.6510785772559655
0.082,-0.28618730940164305
0.084,0.15433314031188028
0.08600000000000001,0.6540198261730674
0.088,1.1917536036630918
0.09,1.7430011671051435
0.092,2.2813273571308827
0.094,2.780070837603553
0.096,3.214063405460423
0.098,3.561269283391204
0.1,3.8042260651806137
0.10200000000000001,3.931183150073701
0.10400000000000001,3.9368554601555803
0.106,3.822738338977503
0.108,3.5969616714017962
0.11,3.2736950297624454
0.112,2.8721485035488765
0.114,2.415243342233232
0.116,1.9280504232942042
0.11800000000000001,1.4361110632879388
0.12,0.9637625910218397
0.122,0.5325898219184356
0.124,0.16011322956303253
0.126,-0.14119399254870157
0.128,-0.3644932218790916
0.13,-0.508735619716874
0.132,-0.5783817432551084
0.134,-0.5827150218686037
0.136,-0.5348091271994667
0.138,-0.4502350932343776
0.14,-0.34561318010163555
0.14200000000000002,-0.23712548466770988
0.14400000000000002,-0.1391073638091026
0.146,-0.0628287166596857
0.148,-0.015560626757771256
0.15,1.1102230246251565e-15
0.152,-0.014096413213849135
0.154,-0.05129359740831074
0.156,-0.10116526194806946
0.158,-0.15039383364753506
0.16,-0.18401352930171275
0.162,-0.1868180890349715
0.164,-0.1448200958845589
0.166,-0.04664413240719367
0.168,0.11525955000321908
0.17,0.3436809714034529
0.17200000000000001,0.6360751093020257
0.17400000000000002,0.9843972842048225
0.176,1.375369883121853
0.178,1.7911679919730619
0.18,2.210479206614961
0.182,2.609863821421273
0.184,2.9653179766017517
0.186,3.2539259926621886
0.188,3.4554802958161286
0.19,3.5539486598520837
0.192,3.5386788834278486
0.194,3.4052497249593605
0.196,3.155902537866912
0.198,2.799518669428924
0.2,2.3511410091698943
0.202,1.8310715935442485
0.20400000000000001,1.263608371876624
0.20600000000000002,0.6755107673974406
0.20800000000000002,0.09430353190094798
0.21,-0.453459898955575
0.212,-0.9438506666068087
0.214,-1.357017034168904
0.216,-1.6783341566790684
0.218,-1.8991718570486782
0.22,-2.017229858368914
0.222,-2.0364222566470422
0.224,-1.9663265705126443
0.226,-1.8212449432275926
0.228,-1.6189535679178086
0.23,-1.3792390170070135
0.232,-1.1223351884924062
0.234,-0.8673809195279419
0.23600000000000002,-0.6310155079071642
0.23800000000000002,-0.42621766600930544
0.24,-0.26147372756438325
0.242,-0.14033475925103478
0.244,-0.06139161041575869
0.246,-0.018664215012998753
0.248,-0.00236914728085319
0.25,3.552713678800501e-15
0.252,0.002369147280860018
0.254,0.018664215013004637
0.256,0.06139161041576291
0.258,0.140334759251037
0.26,0.26147372756438336
0.262,0.4262176660093081
0.264,0.6310155079071627
0.266,0.8673809195279392
0.268,1.1223351884923976
0.27,1.379239017007011
0.272,1.6189535679178024
0.274,1.8212449432275835
0.276,1.966326570512637
0.278,2.0364222566470365
0.28,2.017229858368914
0.28200000000000003,1.8991718570486729
0.28400000000000003,1.6783341566790644
0.28600000000000003,1.357017034168908
0.28800000000000003,0.9438506666068094
0.29,0.45345989895559535
0.292,-0.09430353190093288
0.294,-0.6755107673974315
0.296,-1.2636083718766045
0.298,-1.8310715935442397
0.3,-2.3511410091698837
0.302,-2.799518669428915
0.304,-3.1559025378669063
0.306,-3.405249724959358
0.308,-3.5386788834278478
0.31,-3.553948659852089
0.312,-3.455480295816135
0.314,-3.2539259926621997
0.316,-2.965317976601761
0.318,-2.6098638214212837
0.32,-2.2104792066149663
0.322,-1.791167991973072
0.324,-1.3753698831218593
0.326,-0.9843972842048221
0.328,-0.6360751093020274
0.33,-0.34368097140345233
0.332,-0.11525955000321164
0.334,0.046644132407198
0.336,0.14482009588456707
0.338,0.18681808903497799
0.34,0.1840135293017192
0.342,0.15039383364753828
0.34400000000000003,0.10116526194807801
0.34600000000000003,0.051293597408310965
0.34800000000000003,0.014096413213852688
0.35000000000000003,3.219646771412954e-15
0.352,0.015560626757770368
0.354,0.0628287166596817
0.356,0.1391073638090996
0.358,0.23712548466770356
0.36,0.34561318010163106
0.362,0.4502350932343677
0.364,0.5348091271994649
0.366,0.5827150218685968
0.368,0.578381743255097
0.37,0.5087356197168739
0.372,0.36449322187908906
0.374,0.1411939925486997
0.376,-0.16011322956302476
0.378,-0.5325898219184303
0.38,-0.9637625910218339
0.382,-1.436111063287931
0.384,-1.9280504232941926
0.386,-2.4152433422332207
0.388,-2.872148503548867
0.39,-3.273695029762435
0.392,-3.596961671401792
0.394,-3.8227383389774983
0.396,-3.9368554601555794
0.398,-3.931183150073701
0.4,-3.804226065180616
0.402,-3.5612692833912076
0.404,-3.214063405460424
0.406,-2.7800708376035557
0.40800000000000003,-2.2813273571308916
0.41000000000000003,-1.743001167105146
0.41200000000000003,-1.1917536036630954
0.41400000000000003,-0.6540198261730669
0.41600000000000004,-0.1543331403118795
0.418,0.2861873094016315
0.42,0.6510785772559597
0.422,0.9294195580467843
0.424,1.1163012356403588
0.426,1.2128539631559239
0.428,1.225837530971351
0.43,1.1668324953931068
0.432,1.0511008690623995
0.434,0.8962085787313465
0.436,0.7205192494178463
0.438,0.5416775947462314
0.44,0.3752003430626727
0.442,0.23328326014360978
0.444,0.12391518078045394
0.446,0.05036540161659675
0.448,0.011081209766466205
0.45,-2.886579864025407e-15
0.452,0.0072478489417000524
0.454,0.020166067352210174
0.456,0.02458146850365811
0.458,0.006216849872405172
0.46,-0.04787303530164311
0.462,-0.14795707546248582
0.464,-0.30048528980422473
0.466,-0.5072432302580095
0.468,-0.7648756126883278
0.47000000000000003,-1.0648231127342427
0.47200000000000003,-1.3936843681275637
0.47400000000000003,-1.7339822568251926
0.47600000000000003,-2.0652819884311064
0.47800000000000004,-2.36558086865488
0.48,-2.612867896706069
0.482,-2.786737305780366
0.484,-2.869934850298503
0.486,-2.849719510770933
0.488,-2.71893606253717
0.49,-2.4767146961503785
0.492,-2.1287410372559963
0.494,-1.6870714561879856
0.496,-1.1695021112951467
0.498,-0.5985332092021822
0.5,-1.2983731993508297e-14
0.502,0.5985332092021571
0.504,1.1695021112951238
0.506,1.6870714561879667
0.508,2.128741037255982
0.51,2.47671469615037
0.512,2.7189360625371677
0.514,2.8497195107709365
0.516,2.869934850298512
0.518,2.78673730578038
0.52,2.6128678967060863
0.522,2.3655808686548996
0.524,2.0652819884311095
0.526,1.7339822568252
0.528,1.3936843681275748
0.53,1.0648231127342482
0.532,0.7648756126883343
0.534,0.507243230258002
0.536,0.3004852898042254
0.538,0.14795707546248538
0.54,0.04787303530163123
0.542,-0.006216849872404395
0.544,-0.024581468503664244
0.546,-0.02016606735223017
0.548,-0.007247848941712931
0.55,3.552713678800501e-15
0.552,-0.011081209766480193
0.554,-0.05036540161659753
0.556,-0.12391518078045305
0.558,-0.23328326014361156
0.56,-0.3752003430626689
0.562,-0.5416775947462237
0.5640000000000001,-0.7205192494178345
0.5660000000000001,-0.8962085787313291
0.5680000000000001,-1.0511008690623904
0.5700000000000001,-1.1668324953930906
0.5720000000000001,-1.2258375309713436
0.5740000000000001,-1.2128539631559039
0.5760000000000001,-1.116301235640355
0.578,-0.9294195580467929
0.58,-0.6510785772559817
0.582,-0.2861873094016535
0.584,0.15433314031185796
0.586,0.6540198261730442
0.588,1.1917536036630783
0.59,1.7430011671051213
0.592,2.281327357130855
0.594,2.780070837603545
0.596,3.2140634054604105
0.598,3.5612692833911908
0.6,3.804226065180608
0.602,3.9311831500736987
0.604,3.9368554601555816
0.606,3.822738338977508
0.608,3.5969616714018073
0.61,3.273695029762464
0.612,2.8721485035488827
0.614,2.415243342233244
0.616,1.928050423294221
0.618,1.4361110632879526
0.62,0.9637625910218562
0.622,0.532589821918448
0.624,0.1601132295630332
0.626,-0.14119399254869647
0.628,-0.36449322187910105
0.63,-0.5087356197168764
0.632,-0.5783817432551079
0.634,-0.5827150218686163
0.636,-0.5348091271994805
0.638,-0.4502350932343905
0.64,-0.34561318010164277
0.642,-0.23712548466771588
0.644,-0.13910736380910815
0.646,-0.06282871665968781
0.648,-0.01556062675777059
0.65,9.992007221626409e-16
0.652,-0.01409641321384214
0.654,-0.05129359740830097
0.656,-0.10116526194805942
0.658,-0.1503938336475265
0.66,-0.18401352930170622
0.662,-0.18681808903496583
0.664,-0.14482009588454337
0.666,-0.04664413240719345
0.668,0.1152595500032173
0.67,0.3436809714034609
0.672,0.636075109302024
0.674,0.98439728420482
0.676,1.3753698831218617
0.678,1.7911679919730616
0.68,2.210479206614954
0.682,2.6098638214212677
0.684,2.9653179766017566
0.686,3.2539259926621895
0.6880000000000001,3.4554802958161264
0.6900000000000001,3.55394865985208
0.6920000000000001,3.5386788834278486
0.6940000000000001,3.4052497249593543
0.6960000000000001,3.1559025378669094
0.6980000000000001,2.799518669428926
0.7000000000000001,2.3511410091698934
0.7020000000000001,1.831071593544244
0.704,1.2636083718766515
0.706,0.675510767397465
0.708,0.09430353190097746
0.71,-0.45345989895554956
0.712,-0.9438506666068037
0.714,-1.3570170341688972
0.716,-1.67833415667906
0.718,-1.8991718570486813
0.72,-2.0172298583689177
0.722,-2.036422256647045
0.724,-1.966326570512654
0.726,-1.8212449432276074
0.728,-1.618953567917813
0.73,-1.379239017007022
0.732,-1.122335188492414
0.734,-0.8673809195279554
0.736,-0.6310155079071715
0.738,-0.42621766600931277
0.74,-0.26147372756438947
0.742,-0.1403347592510258
0.744,-0.06139161041574914
0.746,-0.018664215013005414
0.748,-0.002369147280839423
0.75,1.0658141036401503e-14
0.752,0.0023691472808596847
0.754,0.018664215013022845
0.756,0.0613916104157618
0.758,0.14033475925103245
0.76,0.26147372756438914
0.762,0.42621766600930533
0.764,0.6310155079071573
0.766,0.8673809195279355
0.768,1.1223351884923893
0.77,1.3792390170069948
0.772,1.618953567917785
0.774,1.8212449432275812
0.776,1.9663265705126318
0.778,2.036422256647028
0.78,2.0172298583689083
0.782,1.8991718570486804
0.784,1.6783341566790675
0.786,1.3570170341689136
0.788,0.9438506666068278
0.79,0.45345989895558036
0.792,-0.09430353190094193
0.794,-0.675510767397427
0.796,-1.2636083718766133
0.798,-1.831071593544234
0.8,-2.3511410091698846
0.802,-2.7995186694289216
0.804,-3.1559025378669077
0.806,-3.405249724959356
0.808,-3.5386788834278513
0.81,-3.5539486598520886
0.812,-3.4554802958161375
0.8140000000000001,-3.2539259926622024
0.8160000000000001,-2.9653179766017694
0.8180000000000001,-2.6098638214212744
0.8200000000000001,-2.2104792066149663
0.8220000000000001,-1.7911679919730723
0.8240000000000001,-1.375369883121858
0.8260000000000001,-0.9843972842048168
0.8280000000000001,-0.6360751093020228
0.8300000000000001,-0.34368097140344145
0.8320000000000001,-0.11525955000320742
0.834,0.046644132407202
0.836,0.14482009588455813
0.838,0.18681808903498498
0.84,0.18401352930172796
0.842,0.15039383364754894
0.844,0.10116526194808029
0.846,0.051293597408318625
0.848,0.014096413213854686
0.85,1.2212453270876722e-15
0.852,0.015560626757770368
0.854,0.06282871665968104
0.856,0.13910736380909694
0.858,0.23712548466769767
0.86,0.3456131801016147
0.862,0.4502350932343746
0.864,0.5348091271994573
0.866,0.5827150218685841
0.868,0.5783817432551038
0.87,0.5087356197168658
0.872,0.36449322187908395
0.874,0.14119399254871545
0.876,-0.16011322956302032
0.878,-0.5325898219184276
0.88,-0.9637625910218162
0.882,-1.4361110632879208
0.884,-1.9280504232941866
0.886,-2.4152433422331994
0.888,-2.872148503548849
0.89,-3.2736950297624343
0.892,-3.59696167140178
0.894,-3.8227383389774934
0.896,-3.936855460155576
0.898,-3.931183150073704
0.9,-3.80422606518062
0.902,-3.561269283391211
0.904,-3.214063405460446
0.906,-2.780070837603578
0.908,-2.281327357130891
0.91,-1.7430011671051704
0.912,-1.1917536036631136
0.914,-0.6540198261730764
0.916,-0.1543331403118987
0.918,0.2861873094016346
0.92,0.6510785772559708
0.922,0.9294195580467774
0.924,1.1163012356403608
0.926,1.2128539631559399
0.928,1.2258375309713638
0.93,1.166832495393095
0.932,1.0511008690623993
0.934,0.8962085787313414
0.936,0.7205192494178481
0.9380000000000001,0.5416775947462331
0.9400000000000001,0.37520034306267247
0.9420000000000001,0.2332832601436131
0.9440000000000001,0.12391518078044828
0.9460000000000001,0.050365401616575656
0.9480000000000001,0.01108120976647653
0.9500000000000001,-8.659739592076221e-15
0.9520000000000001,0.007247848941681456
0.9540000000000001,0.020166067352210035
0.9560000000000001,0.02458146850364415
0.9580000000000001,0.006216849872371533
0.96,-0.047873035301648215
0.962,-0.14795707546247894
0.964,-0.3004852898042255
0.966,-0.507243230258007
0.968,-0.7648756126883083
0.97,-1.0648231127342191
0.972,-1.3936843681275448
0.974,-1.7339822568251793
0.976,-2.065281988431094
0.978,-2.365580868654871
0.98,-2.612867896706061
0.982,-2.786737305780359
0.984,-2.8699348502984927
0.986,-2.849719510770938
0.988,-2.718936062537169
0.99,-2.476714696150374
0.992,-2.1287410372560096
0.994,-1.6870714561879865
0.996,-1.1695021112951445
0.998,-0.5985332092022089
1.0,-2.5967463987016594e-14
1.002,0.5985332092021586
1.004,1.169502111295099
1.006,1.6870714561879485
1.008,2.128741037255981
1.01,2.476714696150357
1.012,2.718936062537164
1.014,2.849719510770945
1.016,2.8699348502985114
1.018,2.786737305780387
1.02,2.6128678967060956
1.022,2.3655808686549102
1.024,2.0652819884311344
1.026,1.7339822568252181
1.028,1.393684368127579
1.03,1.064823112734247
1.032,0.7648756126883275
1.034,0.5072432302580163
1.036,0.3004852898042253
1.038,0.14795707546246917
1.04,0.04787303530163045
1.042,-0.006216849872422214
1.044,-0.024581468503698328
1.046,-0.020166067352209008
1.048,-0.007247848941707213
1.05,-1.432187701766452e-14
1.052,-0.01108120976647431
1.054,-0.05036540161659986
1.056,-0.12391518078045971
1.058,-0.23328326014360212
1.06,-0.37520034306265826
1.062,-0.5416775947462075
1.064,-0.7205192494178397
1.066,-0.8962085787313347
1.068,-1.0511008690623824
1.07,-1.1668324953930902
1.072,-1.2258375309713374
1.074,-1.2128539631558994
1.076,-1.1163012356403585
1.078,-0.9294195580467794
1.08,-0.6510785772559551
1.082,-0.2861873094016495
1.084,0.1543331403118804
1.086,0.654019826173073
1.088,1.1917536036630798
1.09,1.7430011671051355
1.092,2.2813273571308796
1.094,2.780070837603535
1.096,3.21406340546041
1.098,3.561269283391213
1.1,3.8042260651806132
1.102,3.931183150073702
1.104,3.9368554601555816
1.106,3.8227383389775067
1.108,3.596961671401801
1.11,3.2736950297624494
1.112,2.872148503548894
1.114,2.4152433422332464
1.116,1.928050423294184
1.118,1.43611106328794
1.12,0.9637625910218341
1.122,0.5325898219184213
1.124,0.16011322956300733
1.1260000000000001,-0.14119399254870713
1.1280000000000001,-0.36449322187911026
1.1300000000000001,-0.5087356197169063
1.1320000000000001,-0.5783817432551259
1.1340000000000001,-0.5827150218686075
1.1360000000000001,-0.5348091271994793
1.1380000000000001,-0.4502350932343788
1.1400000000000001,-0.3456131801016436
1.1420000000000001,-0.23712548466771988
1.1440000000000001,-0.13910736380910793
1.1460000000000001,-0.06282871665968692
1.1480000000000001,-0.015560626757766483
1.1500000000000001,7.105427357601002e-15
1.1520000000000001,-0.014096413213847914
1.154,-0.05129359740831074
1.156,-0.10116526194806169
1.158,-0.15039383364751566
1.16,-0.18401352930170894
1.162,-0.18681808903495895
1.164,-0.14482009588454142
1.166,-0.04664413240720244
1.168,0.11525955000321408
1.17,0.34368097140344767
1.172,0.6360751093019944
1.174,0.9843972842047954
1.176,1.375369883121833
1.178,1.791167991973022
1.18,2.2104792066149233
1.182,2.609863821421237
1.184,2.965317976601712
1.186,3.2539259926621567
1.188,3.4554802958161224
1.19,3.5539486598520833
1.192,3.5386788834278518
1.194,3.4052497249593667
1.196,3.155902537866939
1.198,2.799518669428955
1.2,2.351141009169927
1.202,1.831071593544308
1.204,1.2636083718766784
1.206,0.6755107673974639
1.208,0.09430353190099083
1.21,-0.4534598989555496
1.212,-0.9438506666067955
1.214,-1.3570170341688788
1.216,-1.6783341566790573
1.218,-1.8991718570486817
1.22,-2.0172298583689194
1.222,-2.036422256647061
1.224,-1.966326570512649
1.226,-1.8212449432275988
1.228,-1.6189535679178222
1.23,-1.379239017007031
1.232,-1.1223351884924253
1.234,-0.867380919527962
1.236,-0.6310155079071761
1.238,-0.4262176660093253
1.24,-0.2614737275643867
1.242,-0.1403347592510299
1.244,-0.06139161041576724
1.246,-0.01866421501299964
1.248,-0.002369147280832651
1.25,3.552713678800501e-15
1.252,0.002369147280866457
1.254,0.018664215013028507
1.256,0.061391610415788334
1.258,0.14033475925104122
1.26,0.2614737275643866
1.262,0.426217666009313
1.264,0.6310155079071527
1.266,0.8673809195279288
1.268,1.1223351884923842
1.27,1.379239017006986
1.272,1.6189535679177762
1.274,1.821244943227557
1.276,1.9663265705126114
1.278,2.0364222566470334
1.28,2.0172298583689017
1.282,1.89917185704868
1.284,1.6783341566790684
1.286,1.357017034168906
1.288,0.9438506666068376
1.29,0.45345989895560096
1.292,-0.0943035319009301
1.294,-0.6755107673974002
1.296,-1.2636083718766133
1.298,-1.8310715935442494
1.3,-2.3511410091698743
1.302,-2.799518669428915
1.304,-3.1559025378669108
1.306,-3.405249724959352
1.308,-3.538678883427854
1.31,-3.5539486598520993
1.312,-3.4554802958161526
1.314,-3.2539259926621975
1.316,-2.965317976601763
1.318,-2.609863821421291
1.32,-2.2104792066149788
1.322,-1.7911679919730732
1.324,-1.3753698831218788
1.326,-0.9843972842048304
1.328,-0.6360751093020166
1.33,-0.3436809714034582
1.332,-0.11525955000321086
1.334,0.04664413240721588
1.336,0.14482009588456574
1.338,0.18681808903498992
1.34,0.18401352930174522
1.342,0.15039383364755213
1.344,0.10116526194809655
1.346,0.05129359740834072
1.348,0.014096413213849024
1.35,3.219646771412954e-15
1.352,0.015560626757773477
1.354,0.06282871665968215
1.356,0.13910736380909516
1.358,0.23712548466769312
1.36,0.34561318010161934
1.362,0.4502350932343506
1.364,0.5348091271994302
1.366,0.5827150218686039
1.368,0.5783817432550972
1.37,0.5087356197168539
1.372,0.3644932218790886
1.374,0.14119399254869058
1.3760000000000001,-0.1601132295630464
1.3780000000000001,-0.5325898219184263
1.3800000000000001,-0.9637625910218337
1.3820000000000001,-1.4361110632879344
1.3840000000000001,-1.928050423294202
1.3860000000000001,-2.4152433422332353
1.3880000000000001,-2.8721485035488814
1.3900000000000001,-3.2736950297624374
1.3920000000000001,-3.5969616714017896
1.3940000000000001,-3.8227383389774983
1.3960000000000001,-3.936855460155576
1.3980000000000001,-3.9311831500737
1.4000000000000001,-3.804226065180615
1.4020000000000001,-3.5612692833912014
1.4040000000000001,-3.2140634054604176
1.4060000000000001,-2.780070837603543
1.408,-2.281327357130941
1.41,-1.7430011671051977
1.412,-1.19175360366314
1.414,-0.6540198261731259
1.416,-0.1543331403119248
1.418,0.28618730940161896
1.42,0.6510785772559371
1.422,0.9294195580467767
1.424,1.1163012356403685
1.426,1.2128539631559203
1.428,1.2258375309713694
1.43,1.1668324953931282
1.432,1.0511008690624246
1.434,0.8962085787313758
1.436,0.7205192494178797
1.438,0.5416775947462391
1.44,0.3752003430626827
1.442,0.233283260143614
1.444,0.1239151807804616
1.446,0.05036540161658898
1.448,0.011081209766452105
1.45,-1.432187701766452e-14
1.452,0.007247848941671686
1.454,0.02016606735217448
1.456,0.024581468503663745
1.458,0.006216849872393904
1.46,-0.04787303530165277
1.462,-0.14795707546247971
